Time,x,y,omega
8.08333,-2.02757375,1.5249537499999999,0.449811125
8.1,-2.0297466666666666,1.5255611111111111,0.4472784444444444
8.11667,-2.0319089999999997,1.526133,0.44680369999999997
8.13333,-2.034091818181818,1.5266363636363636,0.4458613636363636
8.15,-2.03616,1.527115,0.4449435
8.16667,-2.0380192307692306,1.5275784615384613,0.4425801538461538
8.18333,-2.0397514285714284,1.5279657142857144,0.441324
8.2,-2.0414179999999997,1.5282446666666667,0.440023
8.21667,-2.045398,1.5281186666666666,0.4374133333333333
8.23333,-2.0490459999999997,1.52821,0.43624720000000006
8.25,-2.0522553333333335,1.528666,0.43442153333333333
8.26667,-2.055024,1.5294653333333335,0.43260106666666664
8.28333,-2.0574326666666667,1.5303206666666669,0.43112486666666666
8.3,-2.0595673333333333,1.5308993333333334,0.4298033333333333
8.31667,-2.0614326666666667,1.5311766666666666,0.42818126666666667
8.33333,-2.06303,1.5311546666666667,0.42627553333333335
8.35,-2.064335333333333,1.5308640000000002,0.42578513333333334
8.36667,-2.0652806666666668,1.5304006666666665,0.42469100000000004
8.38333,-2.065812,1.529828,0.424231
8.4,-2.0660346666666665,1.529052,0.42416180000000003
8.41667,-2.066048,1.5280360000000002,0.4253483333333333
8.43333,-2.065784,1.526878,0.42593299999999995
8.45,-2.065183333333333,1.525634,0.4269500666666667
8.46667,-2.0642253333333334,1.5243700000000002,0.4277720666666667
8.48333,-2.062988,1.5229633333333332,0.42692159999999996
8.5,-2.0615433333333333,1.521284,0.4271456
8.51667,-2.05994,1.5195786666666669,0.4270243333333334
8.53333,-2.058289333333333,1.5180259999999999,0.42701266666666665
8.55,-2.0566180000000003,1.5166019999999998,0.4275522
8.56667,-2.0549006666666667,1.5153233333333336,0.4282019333333333
8.58333,-2.0531193333333335,1.5142053333333334,0.4287900666666667
8.6,-2.0512833333333336,1.5132386666666666,0.42944173333333335
8.61667,-2.0494386666666666,1.5123286666666667,0.4291692666666666
8.63333,-2.047616,1.5114033333333334,0.4284607333333333
8.65,-2.045812,1.5104726666666666,0.42727566666666666
8.66667,-2.044038,1.5096893333333332,0.4255868
8.68333,-2.0423346666666666,1.509148,0.42361846666666664
8.7,-2.0407266666666666,1.5087853333333332,0.4203651333333333
8.71667,-2.039226,1.5085733333333333,0.4169736666666667
8.73333,-2.0378433333333335,1.5085353333333336,0.41435513333333335
8.75,-2.036588666666667,1.5087046666666668,0.4121197333333333
8.76667,-2.0353973333333335,1.5088833333333334,0.4093119333333333
8.78333,-2.0341993333333335,1.5088793333333332,0.4053568666666667
8.8,-2.0330053333333336,1.5087453333333334,0.4010862666666667
8.81667,-2.0318253333333334,1.5085439999999999,0.3969378
8.83333,-2.0306626666666667,1.5083086666666667,0.39308753333333335
8.85,-2.0295246666666666,1.5080606666666665,0.3893010666666667
8.86667,-2.0284133333333334,1.507846,0.38601080000000004
8.88333,-2.0272966666666665,1.5077559999999999,0.3824881333333333
8.9,-2.026143333333333,1.5078539999999998,0.3791858
8.91667,-2.0249433333333333,1.5079726666666668,0.3765235333333334
8.93333,-2.0236873333333336,1.507994,0.3740662
8.95,-2.022368,1.5079973333333332,0.3728216
8.96667,-2.02098,1.508016,0.3719127333333333
8.98333,-2.019524666666667,1.5080419999999999,0.37065600000000004
9.0,-2.0180013333333333,1.5080493333333331,0.36892853333333336
9.01667,-2.016405333333333,1.50805,0.3678253333333333
9.03333,-2.014728,1.5080726666666668,0.3679805333333333
9.05,-2.0129573333333335,1.5081106666666668,0.3682574666666667
9.06667,-2.011082,1.5081440000000002,0.3689917333333333
9.08333,-2.0090946666666665,1.508182,0.3702551333333333
9.1,-2.0069886666666665,1.5082506666666666,0.37062753333333326
9.11667,-2.004762,1.5083526666666667,0.3707050666666667
9.13333,-2.0024473333333335,1.5084366666666669,0.371105
9.15,-2.0000733333333334,1.5085026666666665,0.3718936
9.16667,-1.99764,1.5085993333333332,0.3728703333333333
9.18333,-1.9951453333333333,1.5087133333333334,0.3737390666666666
9.2,-1.9925933333333332,1.5088206666666664,0.3741822
9.21667,-1.9899859999999998,1.5089366666666668,0.37469226666666666
9.23333,-1.98732,1.5090613333333331,0.3755385333333333
9.25,-1.9845946666666667,1.5091966666666667,0.3772678666666666
9.26667,-1.9818073333333333,1.5093433333333335,0.3797572
9.28333,-1.97896,1.5095006666666668,0.3821771333333333
9.3,-1.9760553333333335,1.5096713333333331,0.38457346666666664
9.31667,-1.9730973333333333,1.5098566666666666,0.38649453333333333
9.33333,-1.9700920000000002,1.5100573333333334,0.38800946666666664
9.35,-1.9670400000000001,1.510276,0.3908063333333333
9.36667,-1.963938,1.5105133333333332,0.3943582666666667
9.38333,-1.9607866666666667,1.5107713333333332,0.39819940000000004
9.4,-1.9575893333333334,1.5110506666666665,0.40178093333333337
9.41667,-1.9543466666666667,1.5113533333333333,0.4059624666666667
9.43333,-1.951061333333333,1.5116806666666667,0.4101845333333333
9.45,-1.9477366666666667,1.5120326666666668,0.41450726666666665
9.46667,-1.9443733333333335,1.512411333333333,0.41924466666666665
9.48333,-1.9409746666666667,1.5128173333333335,0.4238708666666667
9.5,-1.937546,1.5132506666666667,0.42770273333333336
9.51667,-1.9340946666666667,1.5137113333333332,0.4311062666666667
9.53333,-1.930626,1.5142,0.4342828
9.55,-1.9271413333333334,1.5147173333333335,0.438284
9.56667,-1.923641333333333,1.515264,0.44262713333333337
9.58333,-1.9201293333333331,1.5158406666666666,0.44677
9.6,-1.91661,1.5164473333333333,0.4505921333333333
9.61667,-1.9130886666666667,1.5170833333333333,0.45443953333333337
9.63333,-1.9095686666666667,1.5177493333333336,0.4580368
9.65,-1.906056,1.5184440000000001,0.46107980000000004
9.66667,-1.9025593333333333,1.5191659999999998,0.46308479999999996
9.68333,-1.899084,1.519914,0.4654494
9.7,-1.8956293333333332,1.5206886666666668,0.46896366666666667
9.71667,-1.8921953333333332,1.52149,0.47281533333333337
9.73333,-1.888784,1.5223186666666666,0.4771706
9.75,-1.8853946666666668,1.5231773333333334,0.48215973333333334
9.76667,-1.8820286666666666,1.5240666666666667,0.487091
9.78333,-1.8786886666666667,1.5249853333333332,0.4917569333333333
9.8,-1.8753813333333333,1.5259313333333333,0.49528120000000003
9.81667,-1.8721133333333335,1.526902,0.4983814666666666
9.83333,-1.8688873333333333,1.5278966666666667,0.5018012666666667
9.85,-1.8657026666666667,1.5289146666666666,0.5057372666666667
9.86667,-1.8625626666666666,1.5299553333333333,0.5091166
9.88333,-1.8594706666666667,1.5310166666666667,0.512869
9.9,-1.8564246666666666,1.5320993333333335,0.5177305333333334
9.91667,-1.853424,1.5332066666666668,0.5227998
9.93333,-1.8504639999999999,1.5343419999999999,0.5296044666666667
9.95,-1.8475433333333335,1.5355066666666668,0.536076
9.96667,-1.8446666666666667,1.5366973333333331,0.5412675333333333
9.98333,-1.8418400000000001,1.53791,0.5460942000000001
10.0,-1.8390686666666667,1.5391406666666667,0.5501913999999999
10.0167,-1.8363566666666666,1.5403906666666667,0.5538867333333334
10.0333,-1.8337059999999998,1.5416413333333334,0.5573348666666667
10.05,-1.8311173333333335,1.5429006666666667,0.5615110666666666
10.0667,-1.8285926666666665,1.5441913333333335,0.5656628666666668
10.0833,-1.8261333333333334,1.545502,0.569583
10.1,-1.82374,1.5468333333333333,0.5737648666666666
10.1167,-1.8214080000000001,1.548192,0.5798985333333334
10.1333,-1.8191326666666667,1.5495780000000001,0.5858724
10.15,-1.8169173333333333,1.550988,0.5908594666666667
10.1667,-1.8147659999999999,1.5524206666666667,0.5953822666666667
10.1833,-1.8126853333333335,1.5538533333333333,0.5973163333333334
10.2,-1.81068,1.5552913333333334,0.5999387333333334
10.2167,-1.8087486666666666,1.5567586666666666,0.6036937333333334
10.2333,-1.8068866666666665,1.5582526666666667,0.6080055333333333
10.25,-1.805092,1.559776,0.6123284666666665
10.2667,-1.8033620000000001,1.561324,0.6179082666666667
10.2833,-1.801692,1.5629220000000001,0.6250562666666666
10.3,-1.8000766666666665,1.5645479999999998,0.6321396
10.3167,-1.7985133333333332,1.5661846666666668,0.6388136000000001
10.3333,-1.7970053333333333,1.5678613333333333,0.6453874
10.35,-1.7955560000000002,1.5695706666666667,0.6509493333333334
10.3667,-1.793994,1.5713426666666666,0.6502410666666666
10.3833,-1.792144,1.5731886666666666,0.6492667333333333
10.4,-1.790004,1.5750673333333334,0.6488015333333333
10.4167,-1.7876093333333334,1.5770000000000002,0.6500458666666665
10.4333,-1.7849973333333333,1.57904,0.6524382666666668
10.45,-1.7821713333333333,1.5811673333333331,0.6543852666666667
10.4667,-1.7791400000000002,1.5833620000000002,0.6558127333333332
10.4833,-1.7759153333333335,1.5856326666666665,0.6570237333333334
10.5,-1.7725086666666667,1.5879773333333334,0.6583140000000001
10.5167,-1.7689333333333332,1.5903953333333334,0.6583931333333334
10.5333,-1.7652066666666666,1.5928766666666665,0.657135
10.55,-1.7613486666666667,1.5954326666666667,0.6551688666666666
10.5667,-1.757375333333333,1.5980533333333333,0.6531231999999999
10.5833,-1.7532993333333335,1.6006919999999998,0.6504234666666666
10.6,-1.7491373333333333,1.6033653333333333,0.6507830666666667
10.6167,-1.745086,1.6060613333333333,0.6548842666666667
10.6333,-1.7413446666666668,1.6087493333333334,0.6589732666666667
10.65,-1.7379320000000003,1.6114446666666666,0.6625599999999999
10.6667,-1.7348333333333334,1.6141233333333331,0.6643252000000001
10.6833,-1.7320366666666664,1.6167646666666664,0.6658885333333333
10.7,-1.7295606666666667,1.6193606666666667,0.6662025333333333
10.7167,-1.7274186666666667,1.6218739999999998,0.6668584000000001
10.7333,-1.7255506666666667,1.6243233333333333,0.6646251999999999
10.75,-1.7239093333333335,1.6267413333333332,0.6623156
10.7667,-1.7225166666666667,1.6291079999999998,0.6622892666666667
10.7833,-1.7213813333333334,1.6313933333333333,0.6629267999999999
10.8,-1.7205193333333333,1.6335926666666667,0.6627130666666667
10.8167,-1.7199486666666668,1.6356959999999998,0.662569
10.8333,-1.719662,1.6377233333333334,0.6623186
10.85,-1.719656,1.6396760000000001,0.6586744
10.8667,-1.7199353333333334,1.6415,0.6555919333333333
10.8833,-1.7204953333333335,1.643176,0.6528194666666667
10.9,-1.7213386666666666,1.6447040000000002,0.6489643333333334
10.9167,-1.722472,1.6460940000000002,0.6456974
10.9333,-1.723894,1.6473266666666668,0.6417088
10.95,-1.725604,1.6483906666666668,0.6375843333333333
10.9667,-1.7276053333333332,1.6492980000000002,0.632363
10.9833,-1.72996,1.6499506666666668,0.6292207333333334
11.0,-1.732734,1.6503160000000001,0.6254984666666666
11.0167,-1.7359273333333334,1.6504473333333334,0.6199454666666667
11.0333,-1.7395326666666666,1.650332,0.6138232666666668
11.05,-1.7435446666666665,1.6499546666666667,0.6083698
11.0667,-1.7479473333333333,1.6492873333333333,0.6032338
11.0833,-1.752754,1.6483013333333334,0.5974898
11.1,-1.7579826666666667,1.6469793333333334,0.5920546666666666
11.1167,-1.7636353333333332,1.645332,0.5862221333333334
11.1333,-1.769714,1.6433493333333333,0.57996
11.15,-1.7762153333333335,1.641002,0.5740070666666667
11.1667,-1.7831400000000002,1.6382786666666667,0.5680771333333333
11.1833,-1.7904920000000002,1.635186,0.5620408
11.2,-1.7982653333333332,1.6316953333333333,0.5564141333333333
11.2167,-1.806454,1.62779,0.5517486
11.2333,-1.8150713333333333,1.6235326666666665,0.5481599333333332
11.25,-1.8241086666666666,1.6188973333333332,0.5452018
11.2667,-1.833544,1.6137860000000002,0.5408120666666666
11.2833,-1.8433893333333333,1.6082220000000003,0.5358705333333333
11.3,-1.8536500000000002,1.6022186666666665,0.5310167333333333
11.3167,-1.8643180000000001,1.5957513333333333,0.5257192666666667
11.3333,-1.8753933333333335,1.5888306666666665,0.5217821333333333
11.35,-1.8865073333333333,1.5817993333333333,0.5205594666666667
11.3667,-1.8972806666666668,1.5749613333333334,0.5193166
11.3833,-1.907708,1.5683033333333334,0.5177007333333333
11.4,-1.9177866666666668,1.561824,0.5165605999999999
11.4167,-1.9273853333333333,1.5558593333333335,0.5147599333333334
11.4333,-1.93637,1.5507326666666665,0.5131148666666666
11.45,-1.9447266666666667,1.546416,0.5116302
11.4667,-1.9524359999999998,1.5428413333333333,0.5095094
11.4833,-1.9595966666666667,1.539992,0.5091984666666667
11.5,-1.9663126666666668,1.5378813333333334,0.5088282666666667
11.5167,-1.9725713333333332,1.536482,0.5092697333333333
11.5333,-1.9783446666666669,1.5357313333333333,0.5102274
11.55,-1.9835993333333333,1.5355506666666667,0.5113468
11.5667,-1.9883246666666665,1.5359113333333334,0.5125420666666667
11.5833,-1.9925213333333331,1.536836,0.5150699333333333
11.6,-1.996552,1.5379800000000001,0.5133459333333333
11.6167,-2.0006726666666665,1.5391206666666666,0.5134112666666667
11.6333,-2.0047733333333335,1.5404433333333332,0.5129652666666666
11.65,-2.0088446666666666,1.5419746666666667,0.5131024
11.6667,-2.01299,1.543292,0.5128419999999999
11.6833,-2.017328,1.5440140000000002,0.5130634
11.7,-2.021738,1.544358,0.514216
11.7167,-2.0260866666666666,1.5445293333333334,0.5144954
11.7333,-2.030246,1.5444686666666667,0.5117173333333332
11.75,-2.034062,1.5442,0.5089724666666666
11.7667,-2.0375039999999998,1.5438266666666667,0.5059326666666667
11.7833,-2.0406306666666665,1.543358,0.5045532
11.8,-2.043494,1.5428486666666668,0.5028247333333333
11.8167,-2.0460666666666665,1.5423966666666666,0.5018663333333333
11.8333,-2.0482513333333334,1.5420493333333336,0.4994675333333333
11.85,-2.0499733333333334,1.5418146666666666,0.49852373333333333
11.8667,-2.051320666666667,1.54161,0.49663653333333335
11.8833,-2.052372,1.5413026666666667,0.49654780000000004
11.9,-2.0530893333333333,1.5409226666666667,0.4968528
11.9167,-2.0534286666666666,1.5405659999999999,0.4986976
11.9333,-2.053357333333333,1.5402673333333332,0.5001191333333334
11.95,-2.0529693333333334,1.5398913333333335,0.5006294
11.9667,-2.052372,1.539334,0.5025716666666666
11.9833,-2.051546,1.5386713333333333,0.5045628
12.0,-2.0504973333333334,1.5378886666666667,0.5058286666666666
12.0167,-2.0492326666666667,1.5369726666666668,0.5072157333333334
12.0333,-2.0476733333333335,1.5359666666666667,0.5068615333333333
12.05,-2.045736666666667,1.5349133333333331,0.5072283333333334
12.0667,-2.0434166666666664,1.5338306666666668,0.5074904
12.0833,-2.040763333333333,1.5326553333333333,0.5081830666666667
12.1,-2.0377973333333332,1.5313773333333336,0.5096921333333333
12.1167,-2.034498,1.5300146666666667,0.5106603333333334
12.1333,-2.0308599999999997,1.5285546666666667,0.5108683333333334
12.15,-2.0269866666666667,1.527214,0.5106370666666666
12.1667,-2.022996,1.52619,0.5100186
12.1833,-2.018896666666667,1.5254493333333334,0.5103850666666666
12.2,-2.0146973333333333,1.5249533333333332,0.5117808
12.2167,-2.010412,1.5246626666666667,0.5125368666666666
12.2333,-2.006056,1.5245419999999998,0.5129422
12.25,-2.0016446666666665,1.5245460000000002,0.5138657333333333
12.2667,-1.9971926666666668,1.524632,0.5152691333333334
12.2833,-1.992711333333333,1.5247846666666667,0.5166541333333333
12.3,-1.9882253333333333,1.5249486666666667,0.5172145333333333
12.3167,-1.9838459999999998,1.5252173333333332,0.5168782666666666
12.3333,-1.9796753333333335,1.525720666666667,0.5152462
12.35,-1.975738,1.5264186666666668,0.511244
12.3667,-1.972058,1.5272653333333333,0.5072830666666667
12.3833,-1.9686493333333333,1.5282360000000001,0.5035580666666666
12.4,-1.9654213333333332,1.5291486666666667,0.49961833333333333
12.4167,-1.9622773333333332,1.5298393333333336,0.4955284666666666
12.4333,-1.959222,1.5303426666666666,0.4905174666666666
12.45,-1.95627,1.5306933333333332,0.4844558666666667
12.4667,-1.9534333333333334,1.5309246666666667,0.47873440000000006
12.4833,-1.95072,1.5310786666666667,0.47388833333333336
12.5,-1.948142,1.5311986666666668,0.4683944
12.5167,-1.945716,1.5313226666666668,0.46182853333333335
12.5333,-1.9434533333333335,1.5314713333333332,0.45481246666666664
12.55,-1.9413653333333334,1.5316766666666666,0.4482369333333333
12.5667,-1.9393766666666667,1.5318133333333332,0.4426122666666667
12.5833,-1.937368,1.5318599999999998,0.4380742
12.6,-1.9353013333333335,1.5319566666666666,0.43577713333333334
12.6167,-1.933172,1.5321073333333333,0.43361020000000006
12.6333,-1.930984,1.532314,0.431094
12.65,-1.9287513333333333,1.5325006666666667,0.42841153333333337
12.6667,-1.9264706666666667,1.5326693333333334,0.4261816
12.6833,-1.9241233333333334,1.5328853333333332,0.4244058
12.7,-1.9217026666666668,1.5331160000000001,0.423259
12.7167,-1.9191933333333333,1.533382,0.42252693333333335
12.7333,-1.9165813333333335,1.5336953333333334,0.42108493333333336
12.75,-1.9138533333333332,1.5340559999999999,0.4202075333333333
12.7667,-1.9109926666666666,1.5344673333333332,0.4197741333333333
12.7833,-1.9079866666666667,1.534958,0.42004393333333334
12.8,-1.904824,1.5355593333333333,0.41785633333333333
12.8167,-1.9015033333333335,1.5362739999999997,0.4148420666666667
12.8333,-1.8980566666666665,1.5370106666666667,0.4118922
12.85,-1.8945166666666666,1.5376773333333333,0.4076650666666667
12.8667,-1.8908853333333335,1.538318,0.40366173333333333
12.8833,-1.8871586666666667,1.538978,0.4000948666666667
12.9,-1.8833340000000003,1.539702,0.39647753333333335
12.9167,-1.8794293333333334,1.540446,0.39139393333333333
12.9333,-1.8754673333333334,1.5411620000000001,0.3842567333333333
12.95,-1.8714586666666666,1.5418899999999998,0.3749794666666667
12.9667,-1.8674213333333332,1.542618,0.3633675333333333
12.9833,-1.8633659999999999,1.5433379999999999,0.35275866666666666
13.0,-1.859334,1.5440846666666668,0.34313413333333337
13.0167,-1.855374,1.5448686666666667,0.3336074
13.0333,-1.8514993333333332,1.5456406666666667,0.32331186666666667
13.05,-1.8477139999999999,1.546398,0.31504506666666665
13.0667,-1.8440126666666667,1.5471646666666665,0.306723
13.0833,-1.840408,1.5479346666666667,0.29895133333333335
13.1,-1.8369073333333332,1.5487193333333333,0.2927455333333333
13.1167,-1.8335113333333333,1.5495153333333331,0.2867497333333333
13.1333,-1.830224,1.550322,0.2813113333333333
13.15,-1.8270559999999998,1.5511406666666667,0.27668613333333336
13.1667,-1.8240133333333335,1.5519746666666665,0.274112
13.1833,-1.821092,1.552828,0.2739201333333333
13.2,-1.8182886666666667,1.5537053333333335,0.27560606666666665
13.2167,-1.8155959999999998,1.5546133333333332,0.28156226666666667
13.2333,-1.8130113333333333,1.5555573333333332,0.28785826666666664
13.25,-1.8104993333333332,1.5565099999999998,0.2947396
13.2667,-1.80802,1.5574673333333335,0.30219473333333335
13.2833,-1.8055706666666669,1.558476,0.3109164
13.3,-1.8031560000000002,1.5595213333333333,0.32034559999999995
13.3167,-1.8007799999999998,1.5605900000000001,0.33135180000000003
13.3333,-1.7984346666666666,1.5616933333333334,0.34366193333333334
13.35,-1.7961179999999999,1.5628226666666667,0.3554027333333334
13.3667,-1.7938393333333333,1.5639800000000001,0.3667341333333333
13.3833,-1.7916066666666668,1.5651686666666669,0.3781324666666667
13.4,-1.7894133333333333,1.5663686666666665,0.39001800000000003
13.4167,-1.7872566666666667,1.56759,0.40222879999999994
13.4333,-1.7851406666666667,1.5688579999999999,0.41495459999999995
13.45,-1.7830613333333334,1.570166,0.4294636666666667
13.4667,-1.781022,1.5715100000000002,0.44236753333333334
13.4833,-1.779028,1.5728846666666667,0.4544202666666667
13.5,-1.7770866666666667,1.574288666666667,0.46532593333333333
13.5167,-1.7752053333333333,1.5757213333333333,0.47569886666666666
13.5333,-1.7733846666666664,1.5771826666666666,0.4879372
13.55,-1.7716226666666666,1.578674666666667,0.5001398666666667
13.5667,-1.7699186666666666,1.5801760000000002,0.5142114666666667
13.5833,-1.76828,1.5817033333333332,0.5261281333333333
13.6,-1.7667173333333333,1.5832806666666666,0.5370857333333333
13.6167,-1.7652326666666667,1.5848953333333333,0.5494661999999999
13.6333,-1.7638293333333332,1.5865453333333333,0.5614686666666666
13.65,-1.7625193333333333,1.5882506666666667,0.573392
13.6667,-1.7611459999999999,1.5900386666666668,0.5799522666666665
13.6833,-1.759554,1.5919033333333334,0.5864237333333333
13.7,-1.7577526666666665,1.5938066666666666,0.5915724
13.7167,-1.7557886666666667,1.5957753333333333,0.5984375333333334
13.7333,-1.7537066666666665,1.597846,0.6060904666666667
13.75,-1.7515133333333333,1.6000006666666666,0.6133514666666666
